TS,BOND,ANGLE,DIHED,IMPRP,ELECT,VDW,BOUNDARY,MISC,KINETIC,TOTAL,TEMP,POTENTIAL,TOTAL3,TEMPAVG
0,69639.2022,36532.375,38023.4293,2083.5974,-755.7176,99999999999.9999,0.0,0.0,0.0,99999999999.9999,0.0,99999999999.9999,99999999999.9999,0.0
1,71350.5732,37215.866,38021.0935,2085.9596,-735.0928,99999999999.9999,0.0,0.0,0.0,99999999999.9999,0.0,99999999999.9999,99999999999.9999,0.0
2,75730.0412,38850.4396,38037.3412,2091.9889,-718.9148,99999999999.9999,0.0,0.0,0.0,99999999999.9999,0.0,99999999999.9999,99999999999.9999,0.0
3,82363.3111,41226.6131,38065.4288,2101.4001,-715.2175,17879489518.5545,0.0,0.0,0.0,17879652560.0901,0.0,17879652560.0901,17879652560.0901,0.0
4,91800.9809,44055.8482,38104.8215,2108.3804,-728.4037,16317570294.7469,0.0,0.0,0.0,16317745636.3742,0.0,16317745636.3742,16317745636.3742,0.0
5,102482.2038,46533.283,38127.9025,2115.6471,-752.1663,99999999999.9999,0.0,0.0,0.0,99999999999.9999,0.0,99999999999.9999,99999999999.9999,0.0
6,113860.4135,49009.0234,38155.7716,2125.4538,-767.305,11172373312.0987,0.0,0.0,0.0,11172575695.4561,0.0,11172575695.4561,11172575695.4561,0.0
7,124934.8544,51347.4315,38174.6152,2138.3291,-773.547,17493505.3007,0.0,0.0,0.0,17709326.984,0.0,17709326.984,17709326.984,0.0
8,135393.9574,53642.5133,38190.1932,2151.8135,-774.6389,1862458.7423,0.0,0.0,0.0,2091062.5808,0.0,2091062.5808,2091062.5808,0.0
9,141553.3518,55325.4295,38195.6788,2163.8385,-774.4848,349004.9944,0.0,0.0,0.0,585468.8081,0.0,585468.8081,585468.8081,0.0
10,141497.9573,56150.101,38203.2803,2165.5978,-773.9383,141397.9234,0.0,0.0,0.0,378640.9214,0.0,378640.9214,378640.9214,0.0
11,139892.5823,56308.8759,38204.296,2165.982,-774.2624,106812.6797,0.0,0.0,0.0,342610.1534,0.0,342610.1534,342610.1534,0.0
12,139033.9668,56352.3644,38204.4768,2166.3188,-774.1741,100986.7189,0.0,0.0,0.0,335969.6717,0.0,335969.6717,335969.6717,0.0
13,138567.3072,56366.4986,38203.6082,2166.3188,-774.1531,99158.726,0.0,0.0,0.0,333688.3058,0.0,333688.3058,333688.3058,0.0
14,138283.059,56364.2725,38203.1514,2166.3188,-774.2342,98465.7688,0.0,0.0,0.0,332708.3363,0.0,332708.3363,332708.3363,0.0
15,138231.6791,56364.8649,38203.2023,2166.3188,-774.2457,98329.1041,0.0,0.0,0.0,332520.9236,0.0,332520.9236,332520.9236,0.0
16,138229.5463,56368.9474,38203.1869,2166.3188,-774.2263,98128.5195,0.0,0.0,0.0,332322.2926,0.0,332322.2926,332322.2926,0.0
17,127704.0286,55164.1279,38143.2758,2093.1793,-772.4256,63334.5994,0.0,0.0,0.0,285666.7854,0.0,285666.7854,285666.7854,0.0
18,118782.0058,54258.8617,38092.152,2029.8951,-770.6262,44019.6277,0.0,0.0,0.0,256411.916,0.0,256411.916,256411.916,0.0
19,111411.2355,53659.6169,38049.9364,1977.1119,-768.8082,34223.7867,0.0,0.0,0.0,238552.8793,0.0,238552.8793,238552.8793,0.0
20,109954.5982,53487.5178,38042.2375,1968.4928,-768.637,31264.6036,0.0,0.0,0.0,233948.8129,0.0,233948.8129,233948.8129,0.0
21,108529.5669,53317.9813,38034.4921,1959.9566,-768.4694,30070.5059,0.0,0.0,0.0,231144.0334,0.0,231144.0334,231144.0334,0.0
22,99397.0794,52134.2256,37986.7973,1903.8882,-767.6134,26246.5412,0.0,0.0,0.0,216900.9182,0.0,216900.9182,216900.9182,0.0
23,90923.4796,51038.3403,37940.8232,1850.9796,-766.7356,23535.9497,0.0,0.0,0.0,204522.8368,0.0,204522.8368,204522.8368,0.0
24,80107.2805,49582.3444,37870.6321,1770.6577,-765.2389,20828.6838,0.0,0.0,0.0,189394.3596,0.0,189394.3596,189394.3596,0.0
25,70435.4475,48297.2863,37804.1711,1695.0099,-763.7481,18509.4913,0.0,0.0,0.0,175977.658,0.0,175977.658,175977.658,0.0
26,63037.0708,47320.9556,37744.8576,1628.7527,-762.3179,16677.4632,0.0,0.0,0.0,165646.7819,0.0,165646.7819,165646.7819,0.0
27,56383.4227,46459.6108,37688.4848,1565.9785,-760.8732,15025.0353,0.0,0.0,0.0,156361.6589,0.0,156361.6589,156361.6589,0.0
28,51023.3214,45750.2336,37639.2879,1511.8088,-759.5949,13761.5901,0.0,0.0,0.0,148926.647,0.0,148926.647,148926.647,0.0
29,46175.2552,45117.8971,37592.2202,1460.2916,-758.3145,12595.5164,0.0,0.0,0.0,142182.866,0.0,142182.866,142182.866,0.0
30,42179.8983,44569.2065,37548.8142,1414.003,-757.1767,11589.454,0.0,0.0,0.0,136544.1992,0.0,136544.1992,136544.1992,0.0
31,38560.5025,44075.8264,37507.026,1369.9155,-756.0421,10656.1429,0.0,0.0,0.0,131413.3712,0.0,131413.3712,131413.3712,0.0
32,35296.3197,43653.8345,37469.5893,1332.0815,-755.0582,9828.5081,0.0,0.0,0.0,126825.275,0.0,126825.275,126825.275,0.0
33,32343.4991,43268.7416,37433.3683,1295.932,-754.0782,9069.7056,0.0,0.0,0.0,122657.1684,0.0,122657.1684,122657.1684,0.0
34,29215.8199,42815.3845,37391.3709,1255.4901,-752.9251,8271.8648,0.0,0.0,0.0,118197.005,0.0,118197.005,118197.005,0.0
35,26454.053,42404.3765,37351.1188,1217.2592,-751.7785,7544.4705,0.0,0.0,0.0,114219.4995,0.0,114219.4995,114219.4995,0.0
36,23849.4829,41950.6104,37308.8809,1179.3341,-750.5299,6728.7483,0.0,0.0,0.0,110266.5267,0.0,110266.5267,110266.5267,0.0
37,21584.9199,41534.94,37268.6079,1143.6346,-749.2918,5982.1096,0.0,0.0,0.0,106764.9201,0.0,106764.9201,106764.9201,0.0
38,19895.7801,41099.9909,37230.4059,1111.1854,-748.077,5259.32,0.0,0.0,0.0,103848.6052,0.0,103848.6052,103848.6052,0.0
39,18407.1319,40695.3165,37193.7452,1080.6006,-746.8688,4585.3593,0.0,0.0,0.0,101215.2846,0.0,101215.2846,101215.2846,0.0
40,16738.1195,40066.119,37140.9193,1039.4555,-745.0703,3697.7685,0.0,0.0,0.0,97937.3114,0.0,97937.3114,97937.3114,0.0
41,15337.7812,39486.6602,37090.8572,1001.7689,-743.279,2870.4592,0.0,0.0,0.0,95044.2477,0.0,95044.2477,95044.2477,0.0
42,14058.0055,38672.6722,37028.3958,958.7463,-741.0063,1997.2458,0.0,0.0,0.0,91974.0593,0.0,91974.0593,91974.0593,0.0
43,12982.3826,37919.6911,36972.1336,920.2175,-738.7245,1198.9315,0.0,0.0,0.0,89254.6318,0.0,89254.6318,89254.6318,0.0
44,12141.8243,37064.5242,36913.6353,883.5403,-736.3315,381.7213,0.0,0.0,0.0,86648.9139,0.0,86648.9139,86648.9139,0.0
45,11427.4983,36266.3418,36860.6542,850.8622,-733.9229,-344.9779,0.0,0.0,0.0,84326.4557,0.0,84326.4557,84326.4557,0.0
46,10943.7199,35532.0645,36814.5813,825.9648,-731.8262,-898.2304,0.0,0.0,0.0,82486.2739,0.0,82486.2739,82486.2739,0.0
47,10504.7806,34834.3378,36771.2549,803.2361,-729.7289,-1413.001,0.0,0.0,0.0,80770.8794,0.0,80770.8794,80770.8794,0.0
48,10162.0598,34202.7658,36731.4711,784.1599,-727.8552,-1851.7964,0.0,0.0,0.0,79300.8051,0.0,79300.8051,79300.8051,0.0
49,9863.9331,33609.5845,36693.9491,767.1584,-726.0596,-2271.0812,0.0,0.0,0.0,77937.4843,0.0,77937.4843,77937.4843,0.0
50,9598.4973,33044.0382,36658.2502,751.7544,-724.3232,-2651.5079,0.0,0.0,0.0,76676.7089,0.0,76676.7089,76676.7089,0.0
51,9359.6053,32501.8172,36623.9993,737.6215,-722.6312,-3006.0096,0.0,0.0,0.0,75494.4025,0.0,75494.4025,75494.4025,0.0
52,9141.7443,31977.9032,36590.8498,724.4976,-720.9729,-3340.7967,0.0,0.0,0.0,74373.2253,0.0,74373.2253,74373.2253,0.0
53,8940.286,31466.8234,36558.4345,712.1529,-719.338,-3660.94,0.0,0.0,0.0,73297.4187,0.0,73297.4187,73297.4187,0.0
54,8751.0801,30962.1671,36526.32,700.3662,-717.7023,-3971.3991,0.0,0.0,0.0,72250.832,0.0,72250.832,72250.832,0.0
55,8570.9774,30475.2083,36495.5563,689.3192,-716.065,-4272.0563,0.0,0.0,0.0,71242.9398,0.0,71242.9398,71242.9398,0.0
56,8347.3098,29991.7216,36464.4551,678.6857,-714.4695,-4560.4858,0.0,0.0,0.0,70207.2169,0.0,70207.2169,70207.2169,0.0
57,8037.5922,29119.7595,36407.682,660.1399,-711.4732,-5085.4127,0.0,0.0,0.0,68428.2877,0.0,68428.2877,68428.2877,0.0
58,7681.9255,27969.0108,36330.6486,636.8194,-707.2755,-5780.5887,0.0,0.0,0.0,66130.5402,0.0,66130.5402,66130.5402,0.0
59,7378.4086,26898.9877,36255.5887,615.9776,-703.146,-6419.0622,0.0,0.0,0.0,64026.7544,0.0,64026.7544,64026.7544,0.0
60,7131.2955,25968.8279,36186.4587,598.1633,-699.3501,-6970.4229,0.0,0.0,0.0,62214.9724,0.0,62214.9724,62214.9724,0.0
61,7063.4256,25648.2747,36160.8412,591.9128,-697.9957,-7162.6227,0.0,0.0,0.0,61603.8359,0.0,61603.8359,61603.8359,0.0
62,7008.6226,25339.2437,36135.9972,585.9471,-696.6372,-7231.6298,0.0,0.0,0.0,61141.5437,0.0,61141.5437,61141.5437,0.0
63,6966.9394,25041.7896,36111.9296,580.2662,-695.2749,-7127.2844,0.0,0.0,0.0,60878.3655,0.0,60878.3655,60878.3655,0.0
64,6938.4612,24755.9585,36088.6442,574.8697,-693.9087,-6716.1609,0.0,0.0,0.0,60947.864,0.0,60947.864,60947.864,0.0
65,6956.2412,24947.7173,36104.2838,578.483,-694.8317,-7037.2819,0.0,0.0,0.0,60854.6118,0.0,60854.6118,60854.6118,0.0
66,6954.191,24928.3024,36102.7037,578.1159,-694.7394,-7014.0105,0.0,0.0,0.0,60854.563,0.0,60854.563,60854.563,0.0
67,6955.154,24937.4863,36103.4513,578.2895,-694.7831,-7025.2382,0.0,0.0,0.0,60854.3598,0.0,60854.3598,60854.3598,0.0
68,6995.8235,24935.8729,36101.5948,577.869,-694.6718,-7559.465,0.0,0.0,0.0,60357.0233,0.0,60357.0233,60357.0233,0.0
69,7044.958,24937.7406,36099.7943,577.4499,-694.5578,-7776.6738,0.0,0.0,0.0,60188.7112,0.0,60188.7112,60188.7112,0.0
70,7102.9097,24943.0688,36098.0412,577.032,-694.4419,-7873.1654,0.0,0.0,0.0,60153.4445,0.0,60153.4445,60153.4445,0.0
71,7170.0328,24951.8343,36096.3293,576.6154,-694.3244,-7915.9145,0.0,0.0,0.0,60184.5729,0.0,60184.5729,60184.5729,0.0
72,7096.7077,24942.3809,36098.2146,577.0738,-694.4536,-7866.5654,0.0,0.0,0.0,60153.358,0.0,60153.358,60153.358,0.0
73,7098.9826,24942.6304,36098.1506,577.0584,-694.4492,-7869.0588,0.0,0.0,0.0,60153.3141,0.0,60153.3141,60153.3141,0.0
74,6844.644,24712.3366,36084.4572,573.8902,-693.7876,-7769.4914,0.0,0.0,0.0,59752.0491,0.0,59752.0491,59752.0491,0.0
75,6620.499,24491.3428,36070.9754,570.7898,-693.1286,-7561.3829,0.0,0.0,0.0,59499.0956,0.0,59499.0956,59499.0956,0.0
76,6426.4219,24279.6631,36057.708,567.7569,-692.4729,-7169.1219,0.0,0.0,0.0,59469.9552,0.0,59469.9552,59469.9552,0.0
77,6262.2702,24077.3165,36044.659,564.7917,-691.8212,-6450.4832,0.0,0.0,0.0,59806.733,0.0,59806.733,59806.733,0.0
78,6501.1473,24363.9815,36063.0371,568.973,-692.7371,-7356.6639,0.0,0.0,0.0,59447.7379,0.0,59447.7379,59447.7379,0.0
79,6493.4551,24355.4813,36062.5026,568.8509,-692.7107,-7339.9094,0.0,0.0,0.0,59447.6698,0.0,59447.6698,59447.6698,0.0
80,6496.208,24358.5278,36062.6943,568.8946,-692.7201,-7345.9638,0.0,0.0,0.0,59447.6407,0.0,59447.6407,59447.6407,0.0
81,6552.667,24122.0546,36041.0257,563.9959,-691.5656,-7726.9337,0.0,0.0,0.0,58861.2439,0.0,58861.2439,58861.2439,0.0
82,6646.3819,23897.8598,36019.9572,559.2795,-690.4099,-8013.3864,0.0,0.0,0.0,58419.6821,0.0,58419.6821,58419.6821,0.0
83,6671.2407,23845.0066,36012.9472,557.7332,-690.0296,-8193.7214,0.0,0.0,0.0,58203.1767,0.0,58203.1767,58203.1767,0.0
84,6707.2518,23796.5053,36006.0196,556.2036,-689.6474,-8229.3966,0.0,0.0,0.0,58146.9364,0.0,58146.9364,58146.9364,0.0
85,6754.8529,23752.3103,35999.1678,554.6906,-689.2635,-8175.1444,0.0,0.0,0.0,58196.6138,0.0,58196.6138,58196.6138,0.0
86,6703.1364,23801.1609,36006.7089,556.3558,-689.6857,-8230.2708,0.0,0.0,0.0,58147.4055,0.0,58147.4055,58147.4055,0.0
87,6706.8351,23796.9689,36006.0885,556.2188,-689.6512,-8229.5225,0.0,0.0,0.0,58146.9376,0.0,58146.9376,58146.9376,0.0
88,6760.7653,23682.861,35992.4503,553.2249,-688.9117,-8461.5169,0.0,0.0,0.0,57838.8728,0.0,57838.8728,57838.8728,0.0
89,6840.4795,23574.0513,35979.1722,550.2938,-688.1723,-8646.9549,0.0,0.0,0.0,57608.8696,0.0,57608.8696,57608.8696,0.0
90,6600.5851,23363.0888,35965.8173,547.3587,-687.5404,-8527.6729,0.0,0.0,0.0,57261.6367,0.0,57261.6367,57261.6367,0.0
91,6391.8671,23162.4346,35952.6461,544.4872,-686.9119,-8291.0649,0.0,0.0,0.0,57073.4581,0.0,57073.4581,57073.4581,0.0
92,6213.8448,22972.206,35939.6593,541.6781,-686.2875,-7852.3107,0.0,0.0,0.0,57128.7901,0.0,57128.7901,57128.7901,0.0
93,6334.7262,23103.7074,35948.6928,543.6297,-686.7224,-8184.8911,0.0,0.0,0.0,57059.1427,0.0,57059.1427,57059.1427,0.0
94,6321.9731,23090.3277,35947.7854,543.4332,-686.6787,-8157.5584,0.0,0.0,0.0,57059.2822,0.0,57059.2822,57059.2822,0.0
95,6329.6517,23098.3961,35948.3329,543.5518,-686.705,-8174.1899,0.0,0.0,0.0,57059.0375,0.0,57059.0375,57059.0375,0.0
96,6416.4708,22908.7101,35926.9266,538.9919,-685.5934,-8561.9396,0.0,0.0,0.0,56543.5664,0.0,56543.5664,56543.5664,0.0
97,6538.8492,22739.7549,35906.513,534.6018,-684.4805,-8628.1546,0.0,0.0,0.0,56407.0838,0.0,56407.0838,56407.0838,0.0
98,6691.9533,22583.4915,35887.1959,530.3667,-683.3665,-8275.8313,0.0,0.0,0.0,56733.8096,0.0,56733.8096,56733.8096,0.0
99,6518.493,22763.5834,35909.4949,535.2474,-684.6468,-8638.97,0.0,0.0,0.0,56403.202,0.0,56403.202,56403.202,0.0
100,6520.4973,22761.1781,35909.1957,535.1827,-684.6301,-8638.2563,0.0,0.0,0.0,56403.1674,0.0,56403.1674,56403.1674,0.0
101,6520.2526,22761.4711,35909.2321,535.1906,-684.6321,-8638.3473,0.0,0.0,0.0,56403.1671,0.0,56403.1671,56403.1671,0.0
102,6599.1233,22640.9124,35894.12,532.0467,-683.8036,-9071.5068,0.0,0.0,0.0,55910.892,0.0,55910.892,55910.892,0.0
103,6692.2322,22526.8856,35879.2857,528.9838,-682.9743,-9332.0698,0.0,0.0,0.0,55612.3432,0.0,55612.3432,55612.3432,0.0
104,6799.9403,22419.3638,35864.7279,526.0023,-682.1447,-9516.9721,0.0,0.0,0.0,55410.9175,0.0,55410.9175,55410.9175,0.0
105,6533.0484,22284.56,35857.1289,524.4152,-681.8061,-9355.4146,0.0,0.0,0.0,55161.9317,0.0,55161.9317,55161.9317,0.0
106,6307.8561,22156.6404,35849.6438,522.8995,-681.4699,-9028.0774,0.0,0.0,0.0,55127.4925,0.0,55127.4925,55127.4925,0.0
107,6124.323,22035.4276,35842.2831,521.5184,-681.1363,-8323.2781,0.0,0.0,0.0,55519.1378,0.0,55519.1378,55519.1378,0.0
108,6391.1844,22205.9911,35852.565,523.4823,-681.6014,-9185.2606,0.0,0.0,0.0,55106.3608,0.0,55106.3608,55106.3608,0.0
109,6382.5631,22201.0094,35852.272,523.4232,-681.5882,-9171.5145,0.0,0.0,0.0,55106.1651,0.0,55106.1651,55106.1651,0.0
110,6383.4223,22201.5071,35852.3013,523.4291,-681.5895,-9172.9067,0.0,0.0,0.0,55106.1637,0.0,55106.1637,55106.1637,0.0
111,6222.6041,21966.6826,35830.8979,518.9463,-680.5212,-9118.8677,0.0,0.0,0.0,54739.742,0.0,54739.742,54739.742,0.0
112,6103.9973,21743.2253,35810.1616,514.6357,-679.4529,-8733.4493,0.0,0.0,0.0,54759.1178,0.0,54759.1178,54759.1178,0.0
113,6163.2022,21863.1991,35821.3417,516.9554,-680.0332,-8996.8202,0.0,0.0,0.0,54687.845,0.0,54687.845,54687.845,0.0
114,6156.7237,21851.0517,35820.2147,516.7211,-679.9752,-8976.9531,0.0,0.0,0.0,54687.783,0.0,54687.783,54687.783,0.0
115,6159.6657,21856.5929,35820.729,516.828,-680.0017,-8986.1796,0.0,0.0,0.0,54687.6343,0.0,54687.6343,54687.6343,0.0
116,6214.8891,21744.4942,35807.2488,513.7952,-679.255,-9338.8128,0.0,0.0,0.0,54262.3594,0.0,54262.3594,54262.3594,0.0
117,6283.4265,21637.1142,35794.0915,510.8535,-678.508,-9557.6374,0.0,0.0,0.0,53989.3404,0.0,53989.3404,53989.3404,0.0
118,6365.3785,21534.5071,35781.2913,507.9917,-677.7606,-9699.4268,0.0,0.0,0.0,53811.9812,0.0,53811.9812,53811.9812,0.0
119,6366.7252,21498.0202,35776.0225,507.1864,-677.5287,-9839.0517,0.0,0.0,0.0,53631.3739,0.0,53631.3739,53631.3739,0.0
120,6379.1463,21463.9946,35770.9044,506.4833,-677.2954,-9837.4533,0.0,0.0,0.0,53605.7799,0.0,53605.7799,53605.7799,0.0
121,6402.8514,21432.4505,35765.9302,505.8685,-677.0611,-9716.0014,0.0,0.0,0.0,53714.038,0.0,53714.038,53714.038,0.0
122,6374.1637,21474.1294,35772.4527,506.6881,-677.3669,-9850.5336,0.0,0.0,0.0,53599.5334,0.0,53599.5334,53599.5334,0.0
123,6373.1776,21476.4649,35772.8065,506.7359,-677.3831,-9852.0008,0.0,0.0,0.0,53599.8009,0.0,53599.8009,53599.8009,0.0
124,6374.0626,21474.3624,35772.488,506.6929,-677.3685,-9850.708,0.0,0.0,0.0,53599.5296,0.0,53599.5296,53599.5296,0.0
125,6275.3276,21350.9551,35759.9908,504.2893,-676.773,-9863.3386,0.0,0.0,0.0,53350.4511,0.0,53350.4511,53350.4511,0.0
126,6193.9443,21229.8028,35747.7994,501.9375,-676.1762,-9857.2076,0.0,0.0,0.0,53140.1002,0.0,53140.1002,53140.1002,0.0
127,6213.7133,21193.6807,35742.8383,500.5775,-675.9043,-10028.6356,0.0,0.0,0.0,52946.2698,0.0,52946.2698,52946.2698,0.0
128,6242.2138,21160.1632,35738.0093,499.3067,-675.6315,-10081.4304,0.0,0.0,0.0,52882.6312,0.0,52882.6312,52882.6312,0.0
129,6279.6003,21129.3021,35733.3013,498.1034,-675.358,-10033.5721,0.0,0.0,0.0,52931.377,0.0,52931.377,52931.377,0.0
130,6245.5499,21156.9567,35737.5333,499.1837,-675.6042,-10081.1896,0.0,0.0,0.0,52882.4297,0.0,52882.4297,52882.4297,0.0
131,6244.4828,21157.9702,35737.684,499.2226,-675.6129,-10081.3738,0.0,0.0,0.0,52882.373,0.0,52882.373,52882.373,0.0
132,6172.5768,21057.1273,35725.9526,496.9221,-675.0687,-10141.1421,0.0,0.0,0.0,52636.368,0.0,52636.368,52636.368,0.0
133,6115.6314,20980.3825,35717.5282,495.6315,-674.7134,-10174.478,0.0,0.0,0.0,52459.9822,0.0,52459.9822,52459.9822,0.0
134,6071.6889,20906.8916,35709.3094,494.4961,-674.3573,-10059.9882,0.0,0.0,0.0,52448.0405,0.0,52448.0405,52448.0405,0.0
135,6040.57,20836.6092,35701.3132,493.5528,-674.0007,-9703.2828,0.0,0.0,0.0,52694.7617,0.0,52694.7617,52694.7617,0.0
136,6089.553,20939.0321,35712.9219,494.9774,-674.5151,-10132.561,0.0,0.0,0.0,52429.4083,0.0,52429.4083,52429.4083,0.0
137,6087.653,20935.7897,35712.5588,494.9277,-674.4993,-10127.0282,0.0,0.0,0.0,52429.4017,0.0,52429.4017,52429.4017,0.0
138,6039.0925,20791.8973,35696.1453,491.8083,-673.7045,-10206.971,0.0,0.0,0.0,52138.268,0.0,52138.268,52138.268,0.0
139,6053.6997,20744.3739,35689.5979,490.1071,-673.37,-10339.1738,0.0,0.0,0.0,51965.2347,0.0,51965.2347,51965.2347,0.0
140,6077.5637,20699.4048,35683.2084,488.5086,-673.0344,-10355.2119,0.0,0.0,0.0,51920.4392,0.0,51920.4392,51920.4392,0.0
141,6110.8131,20657.0356,35676.9658,486.9924,-672.6979,-10252.5032,0.0,0.0,0.0,52006.6058,0.0,52006.6058,52006.6058,0.0
142,6073.7363,20705.4229,35684.0763,488.7226,-673.0805,-10359.5695,0.0,0.0,0.0,51919.3082,0.0,51919.3082,51919.3082,0.0
143,6074.1111,20704.8189,35683.9894,488.7012,-673.0759,-10359.2324,0.0,0.0,0.0,51919.3122,0.0,51919.3122,51919.3122,0.0
144,6073.8416,20705.2529,35684.0518,488.7166,-673.0792,-10359.4771,0.0,0.0,0.0,51919.3066,0.0,51919.3066,51919.3066,0.0
145,6045.536,20607.2592,35670.9367,486.2155,-672.4802,-10460.2064,0.0,0.0,0.0,51677.2608,0.0,51677.2608,51677.2608,0.0
146,5995.8603,20540.7092,35663.2598,485.1375,-672.1628,-10502.2375,0.0,0.0,0.0,51510.5665,0.0,51510.5665,51510.5665,0.0
147,5958.0096,20476.9919,35655.7716,484.2036,-671.8446,-10411.6498,0.0,0.0,0.0,51491.4823,0.0,51491.4823,51491.4823,0.0
148,5931.821,20416.0677,35648.4876,483.4453,-671.5253,-10119.813,0.0,0.0,0.0,51688.4832,0.0,51688.4832,51688.4832,0.0
149,5971.485,20501.697,35658.6909,484.5515,-671.9697,-10465.573,0.0,0.0,0.0,51478.8816,0.0,51478.8816,51478.8816,0.0
150,5970.0562,20499.207,35658.3976,484.5155,-671.9571,-10461.3498,0.0,0.0,0.0,51478.8693,0.0,51478.8693,51478.8693,0.0
151,5970.7029,20500.3373,35658.5308,484.5318,-671.9629,-10463.2987,0.0,0.0,0.0,51478.8411,0.0,51478.8411,51478.8411,0.0
152,5916.7074,20365.5873,35643.0264,481.5768,-671.2248,-10514.5423,0.0,0.0,0.0,51221.1308,0.0,51221.1308,51221.1308,0.0
153,5937.3604,20319.0236,35636.2575,479.7679,-670.883,-10641.4661,0.0,0.0,0.0,51060.0602,0.0,51060.0602,51060.0602,0.0
154,5968.2443,20274.9992,35629.6707,478.0902,-670.5403,-10651.9558,0.0,0.0,0.0,51028.5083,0.0,51028.5083,51028.5083,0.0
155,6009.5233,20233.5606,35623.2516,476.517,-670.1967,-10539.3176,0.0,0.0,0.0,51133.3383,0.0,51133.3383,51133.3383,0.0
156,5959.5185,20285.8126,35631.3084,478.5006,-670.6265,-10659.887,0.0,0.0,0.0,51024.6267,0.0,51024.6267,51024.6267,0.0
157,5960.3617,20284.724,35631.1441,478.4593,-670.6179,-10659.4211,0.0,0.0,0.0,51024.6501,0.0,51024.6501,51024.6501,0.0
158,5959.6968,20285.5816,35631.2735,478.4919,-670.6246,-10659.7941,0.0,0.0,0.0,51024.625,0.0,51024.625,51024.625,0.0
159,5945.2908,20189.6159,35617.6892,475.9179,-670.0169,-10763.2855,0.0,0.0,0.0,50795.2114,0.0,50795.2114,50795.2114,0.0
160,5886.4366,20123.878,35610.1461,474.8801,-669.7064,-10796.7094,0.0,0.0,0.0,50628.925,0.0,50628.925,50628.925,0.0
161,5841.9947,20060.8228,35602.8667,473.9839,-669.3951,-10700.4933,0.0,0.0,0.0,50609.7797,0.0,50609.7797,50609.7797,0.0
162,5811.7846,20000.4035,35595.8711,473.2609,-669.0831,-10402.3073,0.0,0.0,0.0,50809.9297,0.0,50809.9297,50809.9297,0.0
163,5857.7776,20085.3226,35605.699,474.3178,-669.5177,-10756.5258,0.0,0.0,0.0,50597.0735,0.0,50597.0735,50597.0735,0.0
164,5856.0998,20082.8542,35605.4139,474.2832,-669.5054,-10752.0901,0.0,0.0,0.0,50597.0556,0.0,50597.0556,50597.0556,0.0
165,5856.8253,20083.925,35605.5376,474.2982,-669.5107,-10754.0465,0.0,0.0,0.0,50597.0288,0.0,50597.0288,50597.0288,0.0
