TS,BOND,ANGLE,DIHED,IMPRP,ELECT,VDW,BOUNDARY,MISC,KINETIC,TOTAL,TEMP,POTENTIAL,TOTAL3,TEMPAVG
0,69639.2022,36532.375,38022.9176,2083.5974,-56.6808,99999999999.9999,0.0,0.0,0.0,99999999999.9999,0.0,99999999999.9999,99999999999.9999,0.0
1,71350.5729,37215.8658,38020.5818,2085.9597,-465.1724,99999999999.9999,0.0,0.0,0.0,99999999999.9999,0.0,99999999999.9999,99999999999.9999,0.0
2,75730.0398,38850.4394,38036.8296,2091.9889,-674.5076,99999999999.9999,0.0,0.0,0.0,99999999999.9999,0.0,99999999999.9999,99999999999.9999,0.0
3,82363.3115,41226.6174,38064.9171,2101.4001,-749.5101,17872571221.2802,0.0,0.0,0.0,17872734228.0162,0.0,17872734228.0162,17872734228.0162,0.0
4,91800.9763,44055.8531,38104.3099,2108.3803,-772.1461,2135945610.1444,0.0,0.0,0.0,2136120907.5179,0.0,2136120907.5179,2136120907.5179,0.0
5,102482.1953,46533.2891,38127.3908,2115.647,-776.234,1190494969.6691,0.0,0.0,0.0,1190683451.9574,0.0,1190683451.9574,1190683451.9574,0.0
6,113860.4032,49009.0315,38155.2599,2125.4538,-776.5373,701489355.2063,0.0,0.0,0.0,701691728.8174,0.0,701691728.8174,701691728.8174,0.0
7,124934.843,51347.4415,38174.1035,2138.3291,-775.7429,17491111.5165,0.0,0.0,0.0,17706930.4907,0.0,17706930.4907,17706930.4907,0.0
8,135393.9442,53642.5236,38189.6816,2151.8135,-774.2804,1862284.6511,0.0,0.0,0.0,2090888.3336,0.0,2090888.3336,2090888.3336,0.0
9,141553.3378,55325.4404,38195.1672,2163.8385,-773.6224,348998.1154,0.0,0.0,0.0,585462.2768,0.0,585462.2768,585462.2768,0.0
10,141497.9602,56150.1046,38202.7685,2165.5978,-772.9886,141396.9643,0.0,0.0,0.0,378640.4068,0.0,378640.4068,378640.4068,0.0
11,139892.596,56308.8799,38203.7843,2165.982,-773.3422,106812.2898,0.0,0.0,0.0,342610.1899,0.0,342610.1899,342610.1899,0.0
12,139033.9842,56352.3674,38203.9651,2166.3189,-773.2539,100986.5384,0.0,0.0,0.0,335969.9202,0.0,335969.9202,335969.9202,0.0
13,138567.331,56366.5003,38203.0965,2166.3189,-773.2329,99158.7881,0.0,0.0,0.0,333688.8019,0.0,333688.8019,333688.8019,0.0
14,138283.0951,56364.2738,38202.6396,2166.3189,-773.3139,98465.5309,0.0,0.0,0.0,332708.5444,0.0,332708.5444,332708.5444,0.0
15,138231.715,56364.8662,38202.6906,2166.3189,-773.3254,98328.8628,0.0,0.0,0.0,332521.1281,0.0,332521.1281,332521.1281,0.0
16,138229.5827,56368.9486,38202.6751,2166.3189,-773.306,98128.2778,0.0,0.0,0.0,332322.497,0.0,332322.497,332322.497,0.0
17,127704.0611,55164.1275,38142.7671,2093.1792,-771.4983,63334.4853,0.0,0.0,0.0,285667.1219,0.0,285667.1219,285667.1219,0.0
18,118782.0313,54258.8594,38091.6459,2029.8949,-769.8152,44019.5627,0.0,0.0,0.0,256412.179,0.0,256412.179,256412.179,0.0
19,111411.2518,53659.6123,38049.4322,1977.1117,-768.222,34223.7081,0.0,0.0,0.0,238552.894,0.0,238552.894,238552.894,0.0
20,109954.7889,53487.5331,38041.7343,1968.4935,-768.0107,31264.6355,0.0,0.0,0.0,233949.1746,0.0,233949.1746,233949.1746,0.0
21,108529.9264,53318.0159,38033.99,1959.9582,-767.847,30070.6543,0.0,0.0,0.0,231144.6979,0.0,231144.6979,231144.6979,0.0
22,99397.9737,52134.336,37986.3002,1903.8933,-767.0037,26246.7902,0.0,0.0,0.0,216902.2897,0.0,216902.2897,216902.2897,0.0
23,90924.8298,51038.5151,37940.3309,1850.988,-766.139,23536.2749,0.0,0.0,0.0,204524.7997,0.0,204524.7997,204524.7997,0.0
24,80108.4248,49582.4941,37870.1424,1770.6658,-764.6546,20828.9476,0.0,0.0,0.0,189396.0202,0.0,189396.0202,189396.0202,0.0
25,70436.405,48297.4128,37803.6839,1695.0179,-763.1464,18509.7032,0.0,0.0,0.0,175979.0763,0.0,175979.0763,175979.0763,0.0
26,63037.865,47321.064,37744.3722,1628.7598,-761.7075,16677.6226,0.0,0.0,0.0,165647.9761,0.0,165647.9761,165647.9761,0.0
27,56384.0728,46459.7042,37688.0012,1565.9848,-760.2554,15025.1596,0.0,0.0,0.0,156362.6672,0.0,156362.6672,156362.6672,0.0
28,51023.8724,45750.3156,37638.8059,1511.8146,-758.9502,13761.6916,0.0,0.0,0.0,148927.5498,0.0,148927.5498,148927.5498,0.0
29,46175.7168,45117.9697,37591.7397,1460.2969,-757.6447,12595.5993,0.0,0.0,0.0,142183.6775,0.0,142183.6775,142183.6775,0.0
30,42180.3023,44569.2756,37548.3355,1414.0079,-756.4843,11589.5209,0.0,0.0,0.0,136544.958,0.0,136544.958,136544.958,0.0
31,38560.8538,44075.8931,37506.549,1369.9202,-755.3282,10656.1973,0.0,0.0,0.0,131414.0853,0.0,131414.0853,131414.0853,0.0
32,35296.5984,43653.8939,37469.1135,1332.0856,-754.3378,9828.5463,0.0,0.0,0.0,126825.8999,0.0,126825.8999,126825.8999,0.0
33,32343.7144,43268.7951,37432.8936,1295.9355,-753.3542,9069.743,0.0,0.0,0.0,122657.7273,0.0,122657.7273,122657.7273,0.0
34,29216.0026,42815.4358,37390.8981,1255.4933,-752.1851,8271.8882,0.0,0.0,0.0,118197.533,0.0,118197.533,118197.533,0.0
35,26454.2069,42404.4262,37350.648,1217.2621,-751.024,7544.4871,0.0,0.0,0.0,114220.0063,0.0,114220.0063,114220.0063,0.0
36,23849.6023,41950.658,37308.4121,1179.3369,-749.7797,6728.7621,0.0,0.0,0.0,110266.9917,0.0,110266.9917,110266.9917,0.0
37,21585.009,41534.9859,37268.1411,1143.6371,-748.5481,5982.1182,0.0,0.0,0.0,106765.3432,0.0,106765.3432,106765.3432,0.0
38,19895.8463,41100.0338,37229.9411,1111.1876,-747.3678,5259.3303,0.0,0.0,0.0,103848.9712,0.0,103848.9712,103848.9712,0.0
39,18407.1787,40695.357,37193.2823,1080.6023,-746.1949,4585.3627,0.0,0.0,0.0,101215.588,0.0,101215.588,101215.588,0.0
40,16738.1471,40066.1585,37140.4593,1039.4565,-744.4466,3697.7584,0.0,0.0,0.0,97937.5331,0.0,97937.5331,97937.5331,0.0
41,15337.7945,39486.6995,37090.4001,1001.7692,-742.7057,2870.4375,0.0,0.0,0.0,95044.395,0.0,95044.395,95044.395,0.0
42,14058.0103,38672.7101,37027.9431,958.7462,-740.4944,1997.2266,0.0,0.0,0.0,91974.1419,0.0,91974.1419,91974.1419,0.0
43,12982.3792,37919.7285,36971.6854,920.217,-738.2742,1198.9162,0.0,0.0,0.0,89254.6522,0.0,89254.6522,89254.6522,0.0
44,12141.8227,37064.5696,36913.192,883.5394,-735.9499,381.6985,0.0,0.0,0.0,86648.8722,0.0,86648.8722,86648.8722,0.0
45,11427.4967,36266.3953,36860.2157,850.8608,-733.609,-345.0142,0.0,0.0,0.0,84326.3453,0.0,84326.3453,84326.3453,0.0
46,10943.7158,35532.1202,36814.1469,825.9634,-731.5656,-898.2625,0.0,0.0,0.0,82486.1181,0.0,82486.1181,82486.1181,0.0
47,10504.7736,34834.3961,36770.8244,803.2345,-729.5143,-1413.0224,0.0,0.0,0.0,80770.692,0.0,80770.692,80770.692,0.0
48,10162.0555,34202.8298,36731.0444,784.1583,-727.6792,-1851.8209,0.0,0.0,0.0,79300.5879,0.0,79300.5879,79300.5879,0.0
49,9863.9319,33609.6522,36693.5257,767.1567,-725.9205,-2271.1029,0.0,0.0,0.0,77937.2431,0.0,77937.2431,77937.2431,0.0
50,9598.4976,33044.1091,36657.8301,751.7528,-724.219,-2651.5312,0.0,0.0,0.0,76676.4394,0.0,76676.4394,76676.4394,0.0
51,9359.6088,32501.8908,36623.5822,737.62,-722.5602,-3006.0246,0.0,0.0,0.0,75494.1171,0.0,75494.1171,75494.1171,0.0
52,9141.7498,31977.9802,36590.4358,724.4962,-720.9302,-3340.8078,0.0,0.0,0.0,74372.9241,0.0,74372.9241,74372.9241,0.0
53,8940.2947,31466.9024,36558.0233,712.1515,-719.3128,-3660.9468,0.0,0.0,0.0,73297.1124,0.0,73297.1124,73297.1124,0.0
54,8751.0905,30962.2475,36525.9118,700.3649,-717.6874,-3971.4062,0.0,0.0,0.0,72250.5209,0.0,72250.5209,72250.5209,0.0
55,8570.9892,30475.2899,36495.151,689.3179,-716.0589,-4272.0571,0.0,0.0,0.0,71242.6319,0.0,71242.6319,71242.6319,0.0
56,8347.3264,29991.8057,36464.0527,678.6845,-714.4713,-4560.4852,0.0,0.0,0.0,70206.9128,0.0,70206.9128,70206.9128,0.0
57,8037.6072,29119.855,36407.2863,660.1391,-711.4766,-5085.3911,0.0,0.0,0.0,68428.0199,0.0,68428.0199,68428.0199,0.0
58,7681.9742,27969.0992,36330.2576,636.8186,-707.2785,-5780.6038,0.0,0.0,0.0,66130.2673,0.0,66130.2673,66130.2673,0.0
59,7378.2077,26899.0353,36255.22,615.9763,-703.149,-6418.9732,0.0,0.0,0.0,64026.317,0.0,64026.317,64026.317,0.0
60,7130.8957,25968.7567,36185.9924,598.1647,-699.3527,-6976.5054,0.0,0.0,0.0,62207.9513,0.0,62207.9513,62207.9513,0.0
61,6965.8215,25244.5972,36128.5073,584.2853,-696.2512,-7383.9024,0.0,0.0,0.0,60843.0576,0.0,60843.0576,60843.0576,0.0
62,6845.5827,24572.3889,36074.7121,571.8945,-693.141,-7641.3371,0.0,0.0,0.0,59730.1,0.0,59730.1,59730.1,0.0
63,6862.0481,24543.7214,36071.2296,571.0917,-692.9486,-7885.6452,0.0,0.0,0.0,59469.497,0.0,59469.497,59469.497,0.0
64,6885.7144,24518.0725,36067.7827,570.2931,-692.7538,-7985.5443,0.0,0.0,0.0,59363.5646,0.0,59363.5646,59363.5646,0.0
65,6916.7963,24495.4301,36064.369,569.4986,-692.5569,-8006.1332,0.0,0.0,0.0,59347.4039,0.0,59347.4039,59347.4039,0.0
66,6955.5251,24475.7776,36060.9864,568.7082,-692.3581,-7964.7092,0.0,0.0,0.0,59403.9301,0.0,59403.9301,59403.9301,0.0
67,6907.3173,24501.4782,36065.3232,569.721,-692.6123,-8006.8135,0.0,0.0,0.0,59344.4139,0.0,59344.4139,59344.4139,0.0
68,6904.9819,24503.0678,36065.5684,569.7781,-692.6265,-8006.2112,0.0,0.0,0.0,59344.5584,0.0,59344.5584,59344.5584,0.0
69,6907.0458,24501.6609,36065.3515,569.7276,-692.614,-8006.7604,0.0,0.0,0.0,59344.4113,0.0,59344.4113,59344.4113,0.0
70,6659.8102,24180.3625,36041.896,564.4339,-691.4571,-7974.72,0.0,0.0,0.0,58780.3256,0.0,58780.3256,58780.3256,0.0
71,6450.1726,23872.9029,36019.1635,559.3354,-690.302,-7780.0715,0.0,0.0,0.0,58431.2009,0.0,58431.2009,58431.2009,0.0
72,6277.7032,23579.3769,35997.1391,554.4326,-689.1489,-7179.3322,0.0,0.0,0.0,58540.1708,0.0,58540.1708,58540.1708,0.0
73,6392.0206,23779.2027,36012.1699,557.7744,-689.9396,-7654.9762,0.0,0.0,0.0,58396.2519,0.0,58396.2519,58396.2519,0.0
74,6379.8079,23758.9238,36010.6519,557.4361,-689.8605,-7621.519,0.0,0.0,0.0,58395.4402,0.0,58395.4402,58395.4402,0.0
75,6382.2806,23763.0478,36010.9608,557.5049,-689.8766,-7628.5331,0.0,0.0,0.0,58395.3844,0.0,58395.3844,58395.3844,0.0
76,6480.9493,23764.8832,36007.7174,556.8239,-689.6824,-8035.5136,0.0,0.0,0.0,58085.1778,0.0,58085.1778,58085.1778,0.0
77,6595.7164,23771.1579,36004.5,556.1469,-689.4874,-8230.3665,0.0,0.0,0.0,58007.6673,0.0,58007.6673,58007.6673,0.0
78,6727.0153,23781.8331,36001.3066,555.4735,-689.2919,-8326.5979,0.0,0.0,0.0,58049.7386,0.0,58049.7386,58049.7386,0.0
79,6608.0957,23772.0279,36004.1796,556.0794,-689.4678,-8243.3672,0.0,0.0,0.0,58007.5475,0.0,58007.5475,58007.5475,0.0
80,6603.2266,23771.6819,36004.3051,556.1058,-689.4755,-8238.3822,0.0,0.0,0.0,58007.4617,0.0,58007.4617,58007.4617,0.0
81,6784.9065,23653.7645,35986.4299,552.1896,-688.5101,-8650.4204,0.0,0.0,0.0,57638.36,0.0,57638.36,57638.36,0.0
82,7004.3891,23547.9658,35968.9297,548.3784,-687.5462,-8931.9019,0.0,0.0,0.0,57450.2149,0.0,57450.2149,57450.2149,0.0
83,7261.9634,23454.3026,35951.8021,544.6723,-686.5839,-9149.0309,0.0,0.0,0.0,57377.1256,0.0,57377.1256,57377.1256,0.0
84,7557.8398,23372.8171,35935.0469,541.0714,-685.6229,-9329.8961,0.0,0.0,0.0,57391.2563,0.0,57391.2563,57391.2563,0.0
85,7354.2172,23426.3936,35946.2981,543.4867,-686.2704,-9211.1522,0.0,0.0,0.0,57372.973,0.0,57372.973,57372.973,0.0
86,7344.8084,23429.1262,35946.8467,543.6048,-686.3017,-9205.0923,0.0,0.0,0.0,57372.9921,0.0,57372.9921,57372.9921,0.0
87,7351.5849,23427.1556,35946.4513,543.5197,-686.2792,-9209.4627,0.0,0.0,0.0,57372.9697,0.0,57372.9697,57372.9697,0.0
88,7063.0337,23162.7555,35924.2023,538.808,-685.1167,-9289.9997,0.0,0.0,0.0,56713.6832,0.0,56713.6832,56713.6832,0.0
89,6838.3015,22911.5997,35902.5559,534.2654,-683.9548,-9344.5412,0.0,0.0,0.0,56158.2265,0.0,56158.2265,56158.2265,0.0
90,6544.3472,22710.521,35891.42,531.8993,-683.4471,-9252.7868,0.0,0.0,0.0,55741.9536,0.0,55741.9536,55741.9536,0.0
91,6293.4256,22520.3804,35880.4206,529.5656,-682.9404,-9062.6626,0.0,0.0,0.0,55478.1893,0.0,55478.1893,55478.1893,0.0
92,6085.1045,22341.2429,35869.5612,527.2649,-682.4349,-8682.7803,0.0,0.0,0.0,55457.9583,0.0,55457.9583,55457.9583,0.0
93,5918.8219,22173.2298,35858.8487,524.9984,-681.9304,-7887.9131,0.0,0.0,0.0,55906.0552,0.0,55906.0552,55906.0552,0.0
94,6172.1737,22419.2423,35874.3546,528.2801,-682.6587,-8884.0981,0.0,0.0,0.0,55427.2939,0.0,55427.2939,55427.2939,0.0
95,6163.0938,22411.3445,35873.874,528.1782,-682.6363,-8866.6993,0.0,0.0,0.0,55427.155,0.0,55427.155,55427.155,0.0
96,6165.6848,22413.6034,35874.0116,528.2074,-682.6427,-8871.7359,0.0,0.0,0.0,55427.1285,0.0,55427.1285,55427.1285,0.0
97,6118.2576,22238.5142,35858.1504,524.9218,-681.8583,-8991.3656,0.0,0.0,0.0,55066.62,0.0,55066.62,55066.62,0.0
98,6100.345,22070.3153,35842.5647,521.7073,-681.075,-9087.7985,0.0,0.0,0.0,54766.0588,0.0,54766.0588,54766.0588,0.0
99,6281.856,22057.7146,35834.0621,520.0048,-680.6139,-9502.6131,0.0,0.0,0.0,54510.4105,0.0,54510.4105,54510.4105,0.0
100,6509.5294,22055.9729,35825.6687,518.3292,-680.1546,-9764.8601,0.0,0.0,0.0,54464.4856,0.0,54464.4856,54464.4856,0.0
101,6783.8591,22065.0255,35817.386,516.6776,-679.697,-9948.643,0.0,0.0,0.0,54554.6082,0.0,54554.6082,54554.6082,0.0
102,6461.0714,22055.4617,35827.3111,518.6569,-680.2448,-9720.9964,0.0,0.0,0.0,54461.2598,0.0,54461.2598,54461.2598,0.0
103,6441.8011,22055.3731,35827.9831,518.7909,-680.2817,-9702.1592,0.0,0.0,0.0,54461.5073,0.0,54461.5073,54461.5073,0.0
104,6456.5429,22055.4348,35827.468,518.6882,-680.2534,-9716.6462,0.0,0.0,0.0,54461.2343,0.0,54461.2343,54461.2343,0.0
105,6402.5879,21892.9917,35807.7742,514.6961,-679.2796,-9833.6218,0.0,0.0,0.0,54105.1485,0.0,54105.1485,54105.1485,0.0
106,6385.75,21739.1768,35788.5653,510.8095,-678.3063,-9932.7982,0.0,0.0,0.0,53813.197,0.0,53813.197,53813.197,0.0
107,6134.9524,21516.2019,35771.8697,507.3111,-677.5365,-9846.8635,0.0,0.0,0.0,53405.9351,0.0,53405.9351,53405.9351,0.0
108,5940.9623,21309.0379,35755.4821,503.9153,-676.7671,-9560.873,0.0,0.0,0.0,53271.7575,0.0,53271.7575,53271.7575,0.0
109,5803.1645,21117.7492,35739.4141,500.6334,-675.9977,-8759.3947,0.0,0.0,0.0,53725.5688,0.0,53725.5688,53725.5688,0.0
110,5972.2406,21345.7588,35758.4572,504.5285,-676.9078,-9637.8411,0.0,0.0,0.0,53266.2361,0.0,53266.2361,53266.2361,0.0
111,5966.9762,21339.6936,35757.968,504.4275,-676.8847,-9626.1753,0.0,0.0,0.0,53266.0053,0.0,53266.0053,53266.0053,0.0
112,5964.3156,21336.6113,35757.7191,504.3762,-676.873,-9620.0963,0.0,0.0,0.0,53266.0529,0.0,53266.0529,53266.0529,0.0
113,5966.7095,21339.3852,35757.9431,504.4224,-676.8836,-9625.5717,0.0,0.0,0.0,53266.005,0.0,53266.005,53266.005,0.0
114,6023.503,21178.346,35737.6061,500.3424,-675.8572,-9949.1254,0.0,0.0,0.0,52814.8148,0.0,52814.8148,52814.8148,0.0
115,6124.9667,21025.8277,35717.7509,496.3705,-674.8303,-10125.0036,0.0,0.0,0.0,52565.0819,0.0,52565.0819,52565.0819,0.0
116,6271.1242,20881.8084,35698.4141,492.5066,-673.803,-10197.865,0.0,0.0,0.0,52472.1854,0.0,52472.1854,52472.1854,0.0
117,6461.7984,20746.3385,35679.6709,488.7507,-672.7759,-10172.3716,0.0,0.0,0.0,52531.4111,0.0,52531.4111,52531.4111,0.0
118,6291.2719,20865.4092,35696.174,492.0587,-673.6821,-10200.1503,0.0,0.0,0.0,52471.0815,0.0,52471.0815,52471.0815,0.0
119,6355.8196,20760.9367,35681.0067,489.113,-672.8983,-10534.5359,0.0,0.0,0.0,52079.4416,0.0,52079.4416,52079.4416,0.0
120,6433.9048,20662.8686,35666.1585,486.2262,-672.1145,-10730.3828,0.0,0.0,0.0,51846.6608,0.0,51846.6608,51846.6608,0.0
121,6525.9114,20571.2112,35651.6086,483.3984,-671.3308,-10872.3519,0.0,0.0,0.0,51688.4469,0.0,51688.4469,51688.4469,0.0
122,6214.5177,20449.834,35645.8828,482.2553,-671.1087,-10723.3835,0.0,0.0,0.0,51397.9975,0.0,51397.9975,51397.9975,0.0
123,5948.9861,20336.0414,35640.204,481.1369,-670.8882,-10460.5816,0.0,0.0,0.0,51274.8986,0.0,51274.8986,51274.8986,0.0
124,5729.6731,20229.6371,35634.5733,480.0488,-670.6694,-9996.5437,0.0,0.0,0.0,51406.7193,0.0,51406.7193,51406.7193,0.0
125,5924.9697,20325.0715,35639.6387,481.0266,-670.8663,-10425.1909,0.0,0.0,0.0,51274.6493,0.0,51274.6493,51274.6493,0.0
126,5934.5872,20329.481,35639.8663,481.071,-670.8751,-10439.6872,0.0,0.0,0.0,51274.4432,0.0,51274.4432,51274.4432,0.0
127,5872.3372,20192.4184,35626.4536,478.5368,-670.278,-10473.9686,0.0,0.0,0.0,51025.4994,0.0,51025.4994,51025.4994,0.0
128,5829.8563,20059.2751,35613.3821,476.0939,-669.6814,-10461.3279,0.0,0.0,0.0,50847.5981,0.0,50847.5981,50847.5981,0.0
129,5806.5488,19930.236,35600.6572,473.7254,-669.0858,-10383.5377,0.0,0.0,0.0,50758.5438,0.0,50758.5438,50758.5438,0.0
130,5801.7453,19805.5096,35588.2911,471.4174,-668.4914,-10212.5248,0.0,0.0,0.0,50785.9472,0.0,50785.9472,50785.9472,0.0
131,5803.3196,19894.1534,35597.087,473.0604,-668.9159,-10345.7633,0.0,0.0,0.0,50752.9412,0.0,50752.9412,50752.9412,0.0
132,5802.7464,19885.1871,35596.199,472.8949,-668.8734,-10335.0476,0.0,0.0,0.0,50753.1064,0.0,50753.1064,50753.1064,0.0
133,5803.1713,19891.965,35596.8703,473.02,-668.9055,-10343.1991,0.0,0.0,0.0,50752.9219,0.0,50752.9219,50752.9219,0.0
134,5970.2064,19831.9954,35582.0666,470.0333,-668.1595,-10822.1727,0.0,0.0,0.0,50363.9696,0.0,50363.9696,50363.9696,0.0
135,6162.3877,19779.7809,35567.5259,467.1183,-667.416,-11157.1326,0.0,0.0,0.0,50152.2642,0.0,50152.2642,50152.2642,0.0
136,6379.8244,19735.3623,35553.2424,464.2688,-666.675,-11403.5394,0.0,0.0,0.0,50062.4835,0.0,50062.4835,50062.4835,0.0
137,6622.6064,19698.782,35539.2121,461.4803,-665.9361,-11594.1185,0.0,0.0,0.0,50062.0262,0.0,50062.0262,50062.0262,0.0
138,6890.8076,19670.0847,35525.4328,458.7496,-665.1995,-11748.3526,0.0,0.0,0.0,50131.5227,0.0,50131.5227,50131.5227,0.0
139,6499.5261,19715.8662,35546.1101,462.8501,-666.3007,-11505.517,0.0,0.0,0.0,50052.5347,0.0,50052.5347,50052.5347,0.0
140,6487.2635,19717.7253,35546.8204,462.9913,-666.3381,-11495.8684,0.0,0.0,0.0,50052.5939,0.0,50052.5939,50052.5939,0.0
141,6497.0326,19716.2418,35546.2542,462.8787,-666.3083,-11503.5683,0.0,0.0,0.0,50052.5306,0.0,50052.5306,50052.5306,0.0
142,6275.2394,19581.716,35528.7619,459.4904,-665.464,-11546.8813,0.0,0.0,0.0,49632.8624,0.0,49632.8624,49632.8624,0.0
143,6094.3578,19453.6919,35511.611,456.1694,-664.6204,-11573.5453,0.0,0.0,0.0,49277.6644,0.0,49277.6644,49277.6644,0.0
144,5778.4097,19325.9493,35503.8994,454.7226,-664.3372,-11366.9019,0.0,0.0,0.0,49031.7419,0.0,49031.7419,49031.7419,0.0
145,5519.4116,19207.9677,35496.3246,453.3121,-664.0565,-10996.0166,0.0,0.0,0.0,49016.9429,0.0,49016.9429,49016.9429,0.0
146,5317.9655,19099.3972,35488.8702,451.9485,-663.7785,-10328.4637,0.0,0.0,0.0,49365.9391,0.0,49365.9391,49365.9391,0.0
147,5629.2324,19260.0408,35499.7282,453.9438,-664.1829,-11190.275,0.0,0.0,0.0,48988.4873,0.0,48988.4873,48988.4873,0.0
148,5617.724,19254.7464,35499.3867,453.8802,-664.1702,-11173.0707,0.0,0.0,0.0,48988.4963,0.0,48988.4963,48988.4963,0.0
149,5599.8331,19156.0997,35486.549,451.3763,-663.6228,-11264.1218,0.0,0.0,0.0,48766.1136,0.0,48766.1136,48766.1136,0.0
150,5605.3676,19063.1121,35473.864,448.9122,-663.077,-11319.1607,0.0,0.0,0.0,48609.0182,0.0,48609.0182,48609.0182,0.0
151,5632.9586,18976.2384,35461.3316,446.4887,-662.5329,-11332.7916,0.0,0.0,0.0,48521.6928,0.0,48521.6928,48521.6928,0.0
152,5681.0131,18896.0742,35448.9523,444.1069,-661.991,-11296.2479,0.0,0.0,0.0,48511.9076,0.0,48511.9076,48511.9076,0.0
153,5747.663,18823.3776,35436.7268,441.7678,-661.4512,-11196.2768,0.0,0.0,0.0,48591.8071,0.0,48591.8071,48591.8071,0.0
154,5660.2231,18926.0647,35453.6949,445.0179,-662.1991,-11316.9691,0.0,0.0,0.0,48505.8323,0.0,48505.8323,48505.8323,0.0
155,5662.1749,18923.0174,35453.2196,444.9265,-662.1783,-11315.2914,0.0,0.0,0.0,48505.8687,0.0,48505.8687,48505.8687,0.0
156,5660.6262,18925.4308,35453.5961,444.9989,-662.1948,-11316.6276,0.0,0.0,0.0,48505.8297,0.0,48505.8297,48505.8297,0.0
157,5742.7718,18867.3064,35441.5002,442.779,-661.6425,-11665.2977,0.0,0.0,0.0,48167.4172,0.0,48167.4172,48167.4172,0.0
158,5842.045,18814.9388,35429.6144,440.5955,-661.0892,-11828.8637,0.0,0.0,0.0,48037.2408,0.0,48037.2408,48037.2408,0.0
159,5958.8186,18768.2675,35417.9304,438.4513,-660.5349,-11899.5458,0.0,0.0,0.0,48023.3871,0.0,48023.3871,48023.3871,0.0
160,6093.4425,18727.2379,35406.4436,436.3506,-659.9798,-11905.3202,0.0,0.0,0.0,48098.1747,0.0,48098.1747,48098.1747,0.0
161,5915.9399,18783.9561,35421.9967,439.197,-660.729,-11882.8834,0.0,0.0,0.0,48017.4772,0.0,48017.4772,48017.4772,0.0
162,5908.2148,18786.9465,35422.7547,439.336,-660.765,-11878.8906,0.0,0.0,0.0,48017.5964,0.0,48017.5964,48017.5964,0.0
163,5914.4332,18784.5352,35422.1439,439.224,-660.736,-11882.1304,0.0,0.0,0.0,48017.4699,0.0,48017.4699,48017.4699,0.0
164,5749.9256,18643.5234,35401.5942,435.4994,-659.8376,-11991.3063,0.0,0.0,0.0,47579.3988,0.0,47579.3988,47579.3988,0.0
165,5645.4631,18514.8036,35381.6406,431.8815,-658.9385,-12005.0881,0.0,0.0,0.0,47309.7622,0.0,47309.7622,47309.7622,0.0
